# x [km]; y [m]
0 0
2.044481376 -11.76
4.509882298 -35.29	
7.011461661 -68.25
8.84608101 -99.13
10.41003186 -156.47
10.74087094 -166.77
12.13239241 -212.35	
13.95570917 -267.64
15.27860729 -305.87
17.09344535 -347.05
18.70641341 -367.64
20.45023108 -394.11
21.23193774 -408.81
23.81760104 -444.11
27.42856979 -475.53