# x [km]; y [m]
0.000000e+00 0.000000e+00
2.044481e+00 -1.176000e+01
4.509882e+00 -3.529000e+01
7.011462e+00 -6.825000e+01
8.846081e+00 -9.913000e+01
1.041003e+01 -1.564700e+02
1.074087e+01 -1.667700e+02
1.213239e+01 -2.123500e+02
1.395571e+01 -2.676400e+02
1.527861e+01 -3.058700e+02
1.709345e+01 -3.470500e+02
1.870641e+01 -3.676400e+02
2.045023e+01 -3.941100e+02
2.123194e+01 -4.088100e+02
2.381760e+01 -4.441100e+02
2.742857e+01 -4.755300e+02
2.842857e+01 -4.955300e+02
